DATE,OPEN_PRICE,HIGH_PRICE,LOW_PRICE,CLOSE_PRICE,TTL_TRD_QNTY,DELIV_PER
2025-09-15,32.5,37.23,32.5,33.97,898722,35.65
2025-09-16,34.0,35.99,33.6,34.87,149365,55.16
2025-09-17,35.0,35.0,32.2,32.85,112132,62.15
2025-09-18,32.8,36.18,32.26,34.5,132921,52.98
2025-09-19,34.49,35.95,33.0,34.79,65706,59.8
2025-09-22,35.45,35.45,33.01,33.13,36939,52.66
2025-09-23,33.0,34.6,32.49,32.86,572020,94.02
2025-09-24,33.5,33.9,32.0,32.2,57140,65.52
2025-09-25,33.01,33.06,31.3,32.03,36075,48.71
2025-09-26,32.03,33.03,31.2,31.38,23145,41.36
2025-09-29,30.55,33.0,30.55,30.93,57589,49.4
2025-09-30,30.55,31.95,30.55,30.96,28094,42.72
2025-10-01,30.1,31.09,29.2,30.55,38738,28.5
2025-10-03,29.5,33.5,29.5,33.1,85307,48.14
2025-10-06,32.51,33.79,32.5,32.52,37376,64.76
2025-10-07,32.1,33.0,32.01,32.26,35119,55.16
2025-10-08,32.98,33.0,31.0,31.57,46363,70.49
2025-10-09,31.52,33.43,31.01,31.92,29561,46.29
2025-10-10,31.2,32.6,31.2,31.49,14397,73.58
2025-10-13,31.01,31.51,30.01,30.18,48814,82.67
2025-10-14,30.87,31.0,29.85,30.22,71252,85.14
2025-10-15,29.75,30.91,29.63,29.91,40992,62.6
2025-10-16,30.05,33.02,30.05,30.94,141910,40.56
2025-10-17,30.53,30.9,29.4,29.71,75588,68.7
2025-10-20,29.11,30.5,29.11,29.9,25277,66.14
2025-10-21,30.2,31.0,29.0,29.82,16281,80.23
2025-10-22,30.2,31.0,29.0,29.82,16281,80.23
2025-10-23,29.42,30.0,29.42,29.89,11742,70.85
2025-10-24,29.63,30.0,29.5,29.94,24142,72.16
2025-10-27,29.56,29.99,29.02,29.79,37934,83.32
2025-10-28,29.3,29.92,29.27,29.8,31096,68.93
2025-10-29,29.8,30.17,29.43,29.55,18764,60.44
2025-10-30,29.19,30.47,29.19,29.79,31172,54.29
2025-10-31,29.33,30.0,29.0,29.14,19506,74.6
2025-11-03,29.2,29.9,29.19,29.3,11459,85.74
2025-11-04,29.39,29.39,27.35,28.26,25781,70.26
2025-11-05,29.39,29.39,27.35,28.26,25781,70.26
2025-11-06,28.3,28.9,28.03,28.5,27537,63.94
2025-11-07,27.5,28.8,27.05,28.16,36353,58.48
2025-11-10,27.17,30.69,27.17,29.22,28887,69.52
2025-11-11,29.36,29.37,28.4,28.94,12152,57.35
2025-11-12,28.93,29.09,28.41,28.87,7515,70.59
2025-11-13,28.25,29.49,28.0,29.02,111427,84.27
2025-11-14,29.49,30.0,28.6,29.29,22137,87.4
2025-11-17,30.0,30.19,29.5,29.9,25781,63.5
2025-11-18,29.7,30.0,29.19,29.73,38362,48.52
2025-11-19,30.5,32.0,29.25,29.87,123417,82.15
2025-11-20,30.5,30.5,29.16,29.73,84265,81.37
2025-11-21,29.17,30.0,28.3,29.13,96140,72.3
2025-11-24,28.3,29.19,28.0,28.24,32501,73.5
2025-11-25,27.33,29.9,27.33,28.79,168119,70.73
2025-11-26,30.85,30.85,28.2,28.88,110489,87.61
2025-11-27,29.94,30.4,28.31,29.8,66309,62.9
2025-11-28,30.1,30.66,29.3,30.21,15229,62.65
2025-12-01,29.9,31.48,29.19,29.75,22785,66.44
2025-12-02,29.02,30.87,29.02,29.69,41841,74.55
2025-12-03,30.59,30.6,29.26,30.09,36203,91.54
2025-12-04,30.92,30.92,29.95,29.99,34798,90.12
2025-12-05,30.79,30.79,29.55,30.14,27776,56.83
2025-12-08,30.01,30.33,29.26,29.99,34446,88.54
2025-12-09,29.8,30.84,29.8,30.28,118916,88.24
2025-12-10,30.9,31.52,30.21,31.02,36752,65.44
2025-12-11,31.29,32.01,30.8,31.07,26789,76.32
2025-12-12,31.91,31.98,30.95,31.17,38074,73.0
2025-12-15,30.6,31.99,30.0,31.39,97094,62.25
2025-12-16,30.66,31.64,30.66,31.01,23626,53.17
2025-12-17,31.26,31.47,30.55,30.57,23093,54.83
2025-12-18,31.75,31.75,30.19,30.2,26185,40.0
2025-12-19,31.06,31.06,30.5,30.6,15166,50.9
2025-12-22,31.08,31.48,30.6,31.18,38224,67.13
2025-12-23,31.7,31.7,30.65,30.86,26809,49.95
2025-12-24,31.0,31.88,30.9,30.99,25441,58.89
2025-12-25,31.0,31.88,30.9,30.99,25441,58.89
2025-12-26,31.61,32.3,30.9,30.94,66861,66.73
2025-12-29,31.56,33.89,31.5,31.87,80562,78.35
2025-12-30,31.4,32.46,30.89,31.66,14838,70.37
2025-12-31,33.2,35.0,31.29,32.72,113349,47.28
2026-01-01,32.72,33.09,31.5,31.7,34302,63.11
2026-01-02,33.0,33.0,31.5,31.81,18253,66.26
2026-01-05,31.7,33.3,31.4,31.61,21020,67.35
2026-01-06,33.25,33.25,31.1,31.31,7569,66.46
2026-01-07,31.3,31.98,30.9,30.91,17731,87.24
2026-01-08,32.01,32.01,30.8,30.8,19855,89.11
2026-01-09,32.32,32.32,30.9,30.91,22220,90.77
2026-01-12,30.91,31.5,29.2,30.5,15151,76.01
2026-01-13,30.63,31.87,30.5,30.5,21838,83.36
2026-01-14,32.98,32.98,30.47,30.54,33342,88.04
2026-01-15,32.98,32.98,30.47,30.54,33342,88.04
2026-01-16,31.15,31.2,29.25,30.63,8907,79.71
2026-01-19,30.69,35.5,30.18,34.18,299482,51.28
2026-01-20,34.29,34.99,30.3,30.52,99526,44.61
2026-01-21,29.2,31.8,29.2,30.52,38103,60.19
2026-01-22,33.5,33.5,30.51,30.86,12101,58.84
2026-01-23,30.86,32.0,30.5,30.56,23844,75.26
2026-01-26,30.86,32.0,30.5,30.56,23844,75.26
2026-01-27,30.56,31.54,30.5,30.67,37275,93.24
2026-01-28,30.51,31.5,30.51,30.76,18822,82.24
2026-01-29,29.4,32.05,29.4,31.34,84754,95.49
2026-01-30,31.9,31.9,30.0,30.59,107170,94.44
2026-02-02,29.45,31.58,29.45,30.2,46316,94.37
2026-02-03,29.25,31.49,29.25,30.5,27970,91.69
2026-02-04,31.26,31.44,30.25,30.7,106181,98.03
2026-02-05,30.15,31.14,30.1,30.5,46235,96.43
2026-02-06,30.49,31.0,29.5,30.54,20538,68.32
2026-02-09,30.54,31.6,29.78,31.26,19365,46.5
2026-02-10,31.51,31.51,30.71,31.02,18312,48.14
2026-02-11,30.55,31.3,30.5,30.63,45923,52.69
2026-02-12,31.48,31.48,30.41,31.01,25587,52.09
2026-02-13,31.39,31.39,30.16,30.63,27803,29.1
2026-02-16,31.5,31.5,29.65,31.12,64012,32.47
2026-02-17,31.51,31.99,30.8,31.04,31933,46.48
2026-02-18,30.26,31.35,30.26,31.03,23347,54.86
2026-02-19,30.3,31.24,30.3,30.58,30880,79.18
2026-02-20,30.7,31.28,30.61,31.07,318708,98.04
2026-02-23,31.19,32.48,30.7,31.78,283684,88.79
2026-02-24,32.45,34.9,31.5,34.5,300634,61.25
2026-02-25,36.7,40.38,35.5,37.16,747491,30.3
2026-02-26,37.5,39.0,35.2,38.48,193002,52.45
2026-02-27,38.5,40.35,34.05,35.54,270807,43.22
2026-03-02,35.5,35.5,32.25,32.95,129760,52.04
2026-03-03,35.5,35.5,32.25,32.95,129760,52.04
2026-03-04,32.1,35.35,32.1,33.87,57382,62.57
2026-03-05,34.79,35.32,32.32,34.32,51213,53.65
2026-03-06,35.34,38.48,34.98,35.88,227477,28.85
2026-03-09,35.87,35.87,33.75,34.56,38380,61.9
2026-03-10,36.8,41.47,35.03,38.85,418410,54.31
2026-03-11,38.85,42.0,36.76,39.41,428693,56.42
2026-03-12,39.8,39.8,35.1,36.18,504491,41.93
2026-03-13,36.18,39.0,35.6,36.76,130190,60.2
2026-03-16,35.72,36.53,34.2,35.23,207771,77.73
2026-03-17,35.26,36.1,34.11,34.33,85843,69.18
2026-03-18,34.84,35.0,34.0,34.26,59459,65.67
2026-03-19,33.9,34.77,33.5,33.57,83212,57.17
2026-03-20,33.31,34.0,32.91,32.98,61193,74.68
2026-03-23,32.9,33.9,29.1,30.01,347825,71.39
2026-03-24,29.8,31.54,29.8,31.19,115420,46.26
2026-03-25,30.8,31.95,30.8,31.02,66919,42.77
2026-03-26,30.8,31.95,30.8,31.02,66919,42.77
2026-03-27,31.02,31.78,30.4,30.46,76320,83.11
2026-03-30,30.9,32.0,28.56,29.75,97814,70.57
2026-03-31,30.9,32.0,28.56,29.75,97814,70.57
2026-04-01,30.25,31.79,30.0,30.23,99485,55.79
2026-04-02,30.24,30.51,29.8,30.16,56852,48.22
2026-04-03,30.24,30.51,29.8,30.16,56852,48.22
2026-04-06,30.0,30.7,30.0,30.33,47909,67.27
2026-04-07,30.33,30.5,30.0,30.25,28681,68.13
2026-04-08,31.2,31.49,30.3,30.4,101867,75.45
2026-04-09,30.06,30.93,30.06,30.72,16407,69.88
2026-04-10,31.41,33.85,30.57,33.49,204306,70.16
2026-04-13,33.01,34.83,32.58,34.04,69462,54.84
2026-04-14,33.01,34.83,32.58,34.04,69462,54.84
2026-04-15,35.05,35.85,34.06,35.04,65903,58.9
2026-04-16,35.94,35.94,34.3,35.06,35054,54.04
2026-04-17,34.4,36.45,34.4,36.05,82085,67.25
2026-04-20,34.4,35.99,33.2,33.39,65288,64.78
2026-04-21,33.0,34.18,33.0,33.01,16328,57.51
2026-04-22,33.01,34.49,33.0,33.47,38074,56.58
2026-04-23,33.68,33.78,32.6,32.79,27930,69.12
2026-04-24,32.11,33.54,32.11,32.6,11285,59.03
2026-04-27,32.6,32.96,31.2,31.89,30552,60.38
2026-04-28,32.09,32.15,31.5,31.53,14862,75.56
2026-04-29,31.52,33.7,31.52,32.12,25471,48.28
2026-04-30,31.31,32.94,31.31,32.32,21140,53.68
2026-05-01,31.31,32.94,31.31,32.32,21140,53.68
2026-05-04,32.34,33.17,31.57,32.05,19490,82.67
2026-05-05,32.07,34.4,31.9,32.4,100401,78.51
2026-05-06,32.4,32.96,31.9,32.11,23224,68.45
2026-05-07,32.0,32.68,31.9,32.23,17411,81.12
2026-05-08,32.0,32.4,31.35,32.1,63901,28.54
2026-05-11,31.51,32.5,31.51,31.98,9654,71.1
2026-05-12,31.99,33.0,30.01,30.63,38235,77.52
2026-05-13,30.32,31.2,30.2,30.42,31845,64.28
2026-05-14,30.08,31.47,30.08,30.92,13865,64.85
2026-05-15,30.77,31.25,28.1,29.12,102209,53.01
2026-05-18,29.9,31.2,28.3,30.28,60596,85.73
2026-05-19,30.25,31.29,29.62,29.8,19237,81.55
2026-05-20,30.0,30.2,29.6,29.71,11382,76.06
2026-05-21,30.0,30.4,28.99,29.37,28687,76.53
2026-05-22,29.0,29.73,28.5,28.98,27838,82.92
2026-05-25,29.29,29.99,28.1,28.81,25382,85.53
2026-05-26,28.81,29.35,28.39,28.99,14224,81.21
2026-05-27,28.99,31.34,28.99,29.69,47255,69.66
2026-05-28,28.99,31.34,28.99,29.69,47255,69.66
2026-05-29,29.83,30.52,29.03,29.68,23793,71.17
2026-06-01,29.68,30.39,29.2,29.21,10996,86.69
2026-06-02,29.75,29.98,29.4,29.49,16875,95.6
2026-06-03,29.55,29.8,28.97,29.05,28810,83.3
2026-06-04,29.0,29.94,28.8,29.32,15772,81.75
2026-06-05,29.01,30.25,29.01,29.56,15430,54.76
2026-06-08,29.66,30.4,28.2,29.74,18217,93.31
2026-06-09,28.85,29.99,28.85,29.03,13304,90.66
2026-06-10,28.5,30.1,28.5,29.54,19011,88.21
2026-06-11,29.5,30.23,28.6,28.99,19459,69.9
2026-06-12,28.89,29.8,28.1,29.15,42389,74.19
2026-06-15,29.7,30.17,29.25,29.81,4019,85.32
2026-06-16,30.2,30.2,29.21,29.62,5748,66.63
2026-06-17,29.5,29.99,29.35,29.82,9675,96.08
2026-06-18,30.0,30.46,29.31,29.88,22895,58.59
2026-06-19,29.88,30.19,28.66,29.27,42976,75.34
2026-06-22,29.27,29.75,29.0,29.1,19371,88.73
2026-06-23,29.35,29.89,29.05,29.5,10447,95.67
2026-06-24,29.58,29.79,28.5,29.2,16918,89.61
2026-06-25,29.3,29.83,28.4,29.06,11411,88.47
2026-06-26,29.3,29.83,28.4,29.06,11411,88.47
2026-06-29,28.5,29.8,28.5,28.72,6733,83.78
2026-06-30,29.09,29.5,28.9,29.15,11077,90.65
2026-07-01,29.8,29.8,28.96,29.02,7662,74.45
2026-07-02,29.35,30.19,27.9,28.67,29664,37.39
2026-07-03,28.6,29.26,28.55,28.98,14186,85.22
2026-07-06,28.6,29.45,28.55,28.9,7716,85.26
2026-07-07,28.76,29.18,28.62,28.72,4431,90.39
2026-07-08,28.5,28.99,28.0,28.51,10697,72.08
2026-07-09,28.72,29.85,28.4,29.05,29704,65.44
2026-07-10,29.1,29.87,28.72,29.21,2203,63.69
2026-07-13,29.19,29.96,28.7,29.12,10860,83.22
2026-07-14,29.12,29.8,28.51,29.23,3986,90.09
2026-07-15,29.23,29.9,28.32,28.95,32039,79.63
2026-07-16,29.3,29.9,28.5,28.61,18070,82.72
2026-07-17,28.61,29.36,28.4,28.84,3780,67.99
2026-07-20,28.84,28.99,28.41,28.85,5477,90.2
